"Time (s)","Linear Acceleration x (m/s^2)","Linear Acceleration y (m/s^2)","Linear Acceleration z (m/s^2)","Absolute acceleration (m/s^2)"
6.008299458E0,1.782648237E0,-2.051748796E0,1.225183541E0,2.981372598E0
6.018326458E0,2.602691581E0,-1.295512901E0,2.068596379E0,3.568115486E0
6.028353458E0,3.333791758E0,-9.745837918E-1,2.643992804E0,4.365166549E0
6.038380458E0,3.931879474E0,-1.064847552E0,2.806423193E0,4.946674402E0
6.048407458E0,4.204623433E0,-1.179542734E0,2.522284180E0,5.043024564E0
6.058435458E0,4.002948287E0,-1.002832275E0,1.692998142E0,4.460438350E0
6.068462458E0,4.253955806E0,-1.190295763E0,9.506777430E-1,4.518487820E0
6.078489458E0,4.233019266E0,-6.878249341E-1,3.501651871E-1,4.302809653E0
6.088516458E0,4.054133644E0,3.300449181E-1,-1.096154130E-1,4.069022584E0
6.098543458E0,3.496801021E0,1.738947902E0,-1.850514933E-1,3.909706030E0
6.108571458E0,3.266331262E0,2.787230877E0,-4.067359753E-3,4.293901771E0
6.118598458E0,3.168873380E0,3.614702523E0,1.540624380E-1,4.809528882E0
6.128625458E0,2.862383385E0,4.355470487E0,2.947149082E-1,5.220174201E0
6.138652458E0,2.551776366E0,4.758883928E0,3.878715420E-1,5.413777165E0
6.148680458E0,2.010810100E0,4.904093097E0,4.242974297E-1,5.317284520E0
6.158707458E0,1.374811378E0,4.793261463E0,4.486650797E-1,5.006671762E0
6.168734458E0,6.572217768E-1,4.467914783E0,4.442000727E-1,4.537787641E0
6.178761458E0,-5.952699423E-2,4.039795101E0,3.582764447E-1,4.056088009E0
6.188788458E0,-7.308171719E-1,3.585341315E0,2.348674500E-1,3.666596351E0
6.198816458E0,-1.199950978E0,3.231454375E0,1.960664964E-1,3.452625349E0
6.208844167E0,-1.490513157E0,2.905031222E0,1.557768416E-1,3.268807473E0
6.218871167E0,-1.635055743E0,2.613377368E0,1.857660230E-1,3.088309824E0
6.228898167E0,-1.664927999E0,2.327521613E0,2.898359549E-1,2.876342639E0
6.238925167E0,-1.602577969E0,2.100539133E0,4.887582314E-1,2.686895123E0
6.248953167E0,-1.538601828E0,1.863742687E0,6.754972494E-1,2.509408082E0
6.258980167E0,-1.378528453E0,1.638744752E0,8.824699724E-1,2.316155933E0
6.269007167E0,-1.290050724E0,1.497797619E0,1.137987449E0,2.280930514E0
6.279034167E0,-1.310262794E0,1.325183719E0,1.263718958E0,2.251640754E0
6.289061167E0,-1.185483797E0,1.209221739E0,1.398601359E0,2.196286595E0
6.299089167E0,-9.543544722E-1,1.192636111E0,1.401468834E0,2.072990170E0
6.309116167E0,-6.439597070E-1,1.233405823E0,1.284126910E0,1.893397990E0
6.319143167E0,-3.445933753E-1,1.347849866E0,1.015634462E0,1.722485766E0
6.329170167E0,2.963485837E-2,1.439524852E0,7.556415260E-1,1.626070152E0
6.339198167E0,3.450377637E-1,1.479499342E0,6.404852915E-1,1.648693655E0
6.349225167E0,5.520800686E-1,1.407283305E0,5.928199589E-1,1.623783916E0
6.359252167E0,8.028285563E-1,1.188911435E0,5.328889221E-1,1.530364236E0
6.369279167E0,1.163771331E0,1.035510902E0,4.389610040E-1,1.618435449E0
6.379306167E0,1.715728608E0,9.816580456E-1,2.586206124E-1,1.993555065E0
6.389334167E0,2.272335007E0,1.025341424E0,8.464021901E-2,2.494392789E0
6.399361167E0,2.741974012E0,1.216169985E0,-1.504260546E-1,3.003351280E0
6.409388167E0,3.334881679E0,1.205860759E0,-4.448076349E-1,3.573987943E0
6.419415167E0,3.660854012E0,1.191965436E0,-7.918398839E-1,3.930603528E0
6.429442167E0,3.821648349E0,1.299328501E0,-1.031379844E0,4.166172709E0
6.439470167E0,3.983891042E0,1.424478212E0,-1.176070365E0,4.391317287E0
6.449497167E0,4.150609193E0,1.495140644E0,-1.203369260E0,4.572865600E0
6.459524167E0,4.361191987E0,1.363719209E0,-1.042568491E0,4.686861924E0
6.469551167E0,4.478594722E0,1.186461452E0,-7.536482102E-1,4.693984138E0
6.479578167E0,4.501407634E0,1.097555122E0,-5.558837189E-1,4.666508828E0
6.489606167E0,4.482286654E0,1.086032014E0,-5.451324435E-1,4.644085332E0
6.499633167E0,4.554568180E0,1.069773831E0,-7.019752691E-1,4.730885396E0
6.509660167E0,4.693594503E0,1.036746418E0,-7.401043046E-1,4.863376078E0
6.519687167E0,4.638036599E0,9.869848591E-1,-8.179676554E-1,4.811922037E0
6.529714167E0,4.318071111E0,9.756289816E-1,-9.035257959E-1,4.518179821E0
6.539742167E0,3.879332301E0,8.419107610E-1,-1.056243374E0,4.107758865E0
6.549769167E0,3.520080541E0,4.157791328E-1,-1.215457282E0,3.747155682E0
6.559796167E0,3.424573874E0,-9.425126910E-2,-1.109480446E0,3.601046568E0
6.569823167E0,3.498641140E0,-6.026397729E-1,-7.964995301E-1,3.638416692E0
6.579851167E0,3.571377579E0,-1.062385290E0,-4.813691781E-1,3.757008997E0
6.589878167E0,3.546922184E0,-1.501984225E0,-2.552765715E-1,3.860282337E0
6.599905167E0,3.412349101E0,-1.837539559E0,1.855321527E-2,3.875696355E0
6.609932167E0,3.117098624E0,-2.099064173E0,2.946727534E-1,3.769510083E0
6.619959167E0,2.625245461E0,-2.189376757E0,5.888929689E-1,3.468728765E0
6.629987167E0,2.078573483E0,-2.144794077E0,8.271710998E-1,3.099164627E0
6.640014167E0,1.528906560E0,-2.079790288E0,9.340353978E-1,2.745087437E0
6.650041167E0,9.755658317E-1,-1.958115285E0,1.039714465E0,2.422178840E0
6.660068167E0,4.597361612E-1,-1.768308233E0,1.113650168E0,2.139740181E0
6.670095167E0,-2.022025645E-2,-1.533137020E0,1.143424775E0,1.912678279E0
6.680123167E0,-4.907439458E-1,-1.381108536E0,9.852318639E-1,1.766061221E0
6.690150167E0,-9.961608946E-1,-1.286160572E0,6.557184577E-1,1.753998928E0
6.700177167E0,-1.481337122E0,-1.290753852E0,3.347332887E-1,1.993100988E0
6.710204167E0,-1.951925715E0,-1.404302394E0,7.413867451E-2,2.405738090E0
6.720231167E0,-2.460084423E0,-1.523779429E0,-1.240182015E-1,2.896428772E0
6.730259167E0,-2.844482719E0,-1.633062135E0,-2.910907674E-1,3.292826706E0
6.740286167E0,-3.162782335E0,-1.823472620E0,-4.749155331E-1,3.681547129E0
6.750313167E0,-3.500012312E0,-2.031710388E0,-6.800902373E-1,4.103712467E0
6.760340167E0,-3.772956830E0,-2.238389581E0,-8.496349329E-1,4.468497586E0
6.770367167E0,-4.019369608E0,-2.441757057E0,-1.048153751E0,4.818312553E0
6.780395167E0,-4.245092597E0,-2.613139386E0,-1.231570966E0,5.134790712E0
6.790422167E0,-4.436848526E0,-2.791138571E0,-1.393264605E0,5.423768581E0
6.800449167E0,-4.664787025E0,-2.921799282E0,-1.547617650E0,5.717715403E0
6.810476167E0,-4.836096411E0,-2.983761934E0,-1.614707433E0,5.907448169E0
6.820504167E0,-4.920803854E0,-3.013638575E0,-1.658745153E0,6.003978974E0
6.830531167E0,-4.959063356E0,-2.998545742E0,-1.610409729E0,6.014732366E0
6.840558167E0,-4.951216977E0,-2.906026418E0,-1.556500155E0,5.948296549E0
6.850585167E0,-4.903455750E0,-2.855581904E0,-1.558333696E0,5.884439669E0
6.860612167E0,-4.843690190E0,-2.894485184E0,-1.483565934E0,5.834410597E0
6.870639167E0,-4.760890108E0,-2.996441329E0,-1.388953453E0,5.794301248E0
6.880667167E0,-4.681419430E0,-3.192224528E0,-1.403508927E0,5.837450011E0
6.890694167E0,-4.572942470E0,-3.346215338E0,-1.503242546E0,5.862482245E0
6.900721167E0,-4.348149773E0,-3.574087471E0,-1.678599958E0,5.873517304E0
6.910748167E0,-4.073924714E0,-3.880328374E0,-1.820607777E0,5.913410483E0
6.920776167E0,-3.775810272E0,-4.165224309E0,-1.851196901E0,5.918848428E0
6.930803167E0,-3.335821327E0,-4.337388265E0,-1.743226894E0,5.742776410E0
6.940830167E0,-2.683462095E0,-4.224892806E0,-1.647792149E0,5.269336486E0
6.950857167E0,-2.155662004E0,-3.921175269E0,-1.481859278E0,4.713639898E0
6.960884167E0,-2.409001393E0,-4.253075801E0,-1.268382112E0,5.049825211E0
6.970912167E0,-2.102219038E0,-4.504029818E0,-9.544328979E-1,5.061279645E0
6.980939167E0,-1.642960010E0,-4.101812425E0,-6.795096818E-1,4.470561057E0
6.990966167E0,-1.270367827E0,-3.728164527E0,-4.282384530E-1,3.961872452E0
7.000993167E0,-9.147612208E-1,-3.452325637E0,-2.684445743E-1,3.581536386E0
7.011020167E0,-7.230666876E-1,-3.113824768E0,-4.544047065E-1,3.228809960E0
7.021048167E0,-1.009732282E-1,-3.174496355E0,-7.020769376E-1,3.252773390E0
7.031075167E0,7.276590908E-1,-3.323372605E0,-1.166908363E0,3.596660722E0
7.041102167E0,1.750513694E0,-3.724421432E0,-1.519223571E0,4.386758878E0
7.051129167E0,2.509819086E0,-3.908808700E0,-1.753831989E0,4.965269775E0
7.061156167E0,2.933215386E0,-3.791201020E0,-1.760611251E0,5.106535974E0
7.071184167E0,3.511916658E0,-3.604594149E0,-1.642177067E0,5.293713547E0
7.081211167E0,3.868982145E0,-3.125406348E0,-1.296622995E0,5.139885102E0
7.091238167E0,3.997566510E0,-2.308968690E0,-5.080306542E-1,4.644348130E0
7.101265167E0,3.789507959E0,-1.196214023E0,4.287938654E-1,3.996894136E0
7.111292167E0,3.425039313E0,-7.335799813E-2,1.262473501E0,3.651043006E0
7.121320167E0,3.513349811E0,4.635520542E-1,2.001001396E0,4.069706868E0
7.131347167E0,3.826137841E0,6.884488320E-1,2.662795111E0,4.712087688E0
7.141374167E0,4.125243972E0,5.245320815E-1,3.189870147E0,5.240996402E0
7.151401167E0,4.327026122E0,1.706533277E-1,3.520910261E0,5.581136683E0
7.161428167E0,4.374465752E0,2.026761889E-2,3.571233737E0,5.647129518E0
7.171456167E0,4.300579750E0,-1.131003535E-1,3.411418809E0,5.490496896E0
7.181483167E0,4.258634748E0,-1.415564132E-1,3.108965732E0,5.274625680E0
7.191510167E0,3.694394810E0,6.659037226E-1,2.560742487E0,4.544159203E0
7.201537167E0,2.995295275E0,1.685928274E0,2.149971933E0,4.054198717E0
7.211564667E0,2.564970608E0,2.448405780E0,1.866190331E0,4.007047721E0
7.221591667E0,2.126711270E0,3.100367401E0,1.755500200E0,4.149332452E0
7.231618667E0,1.672011901E0,3.608396886E0,1.771905148E0,4.353825873E0
7.241645667E0,1.146481699E0,4.054116102E0,1.823043873E0,4.590617237E0
7.251672667E0,6.646559268E-1,4.388722433E0,1.806210616E0,4.792186232E0
7.261700667E0,2.589281577E-1,4.611387913E0,1.678334495E0,4.914137661E0
7.271727667E0,-6.425446808E-2,4.736867407E0,1.466714551E0,4.959162534E0
7.281754667E0,-3.099965698E-1,4.748964711E0,1.275027619E0,4.926911724E0
7.291781667E0,-4.529083675E-1,4.594708146E0,1.156000382E0,4.759496383E0
7.301808667E0,-5.517046773E-1,4.415303875E0,1.163129380E0,4.599147347E0
7.311836667E0,-4.986213148E-1,4.114624259E0,1.206516890E0,4.316762562E0
7.321863667E0,-4.500040555E-1,3.710529032E0,1.403953900E0,3.992695318E0
7.331890667E0,-3.049217713E-1,3.362263606E0,1.617342188E0,3.743472932E0
7.341917667E0,-5.469719410E-2,3.047768773E0,1.856358676E0,3.569027012E0
7.351944667E0,1.324002582E-1,2.738637006E0,2.027242531E0,3.409893658E0
7.361972667E0,3.270634228E-1,2.364366673E0,2.224215345E0,3.262565578E0
7.371999667E0,3.901928866E-1,2.024566260E0,2.421279377E0,3.180206416E0
7.382026667E0,3.179920524E-1,1.669526249E0,2.635936511E0,3.136335143E0
7.392053667E0,2.353434134E-1,1.413606484E0,2.920306488E0,3.252977067E0
7.402080667E0,2.552005577E-1,1.217063439E0,3.193564417E0,3.427130641E0
7.412108667E0,4.119825357E-1,1.158715829E0,3.468936700E0,3.680471954E0
7.422135667E0,5.904401422E-1,1.184400893E0,3.604120817E0,3.839415568E0
7.432162667E0,7.461093950E-1,1.230097468E0,3.566812073E0,3.846032680E0
7.442189667E0,9.884571880E-1,1.257312748E0,3.320506300E0,3.685599686E0
7.452216667E0,1.157507209E0,1.392106272E0,2.915410030E0,3.431821448E0
7.462244667E0,1.251088972E0,1.601676913E0,2.404142357E0,3.148093554E0
7.472271667E0,1.320153944E0,1.772576993E0,1.911225732E0,2.921920504E0
7.482298667E0,1.341691579E0,1.888196912E0,1.596936575E0,2.813472995E0
7.492325667E0,1.360420795E0,1.931860995E0,1.301290827E0,2.697441280E0
7.502352667E0,1.470862420E0,1.804394032E0,9.739753890E-1,2.523470257E0
7.512380667E0,1.774124166E0,1.586635535E0,6.697120873E-1,2.472537797E0
7.522407667E0,2.090747386E0,1.226211408E0,3.764859167E-1,2.452867851E0
7.532434667E0,2.386943942E0,6.646863323E-1,9.594937362E-2,2.479620048E0
7.542461667E0,2.616018555E0,8.115058243E-2,-1.204982507E-1,2.620049298E0
7.552488667E0,2.627823499E0,-2.402433801E-1,-2.637070505E-1,2.651926589E0
7.562516667E0,2.486627859E0,-3.427526718E-1,-3.738650485E-1,2.537828319E0
7.572543667E0,2.211226341E0,-1.770121747E-1,-2.840951586E-1,2.236417961E0
7.582570667E0,1.969802992E0,2.525073302E-1,6.159106135E-2,1.986876252E0
7.592597667E0,2.034612361E0,5.713904983E-1,4.168947816E-1,2.154051026E0
7.602625667E0,2.307203123E0,5.712922651E-1,6.692875063E-1,2.469313036E0
7.612652667E0,2.679910496E0,2.503228104E-1,7.380531013E-1,2.790932489E0
7.622679667E0,2.945719657E0,-1.241644549E-1,4.734747791E-1,2.986111096E0
7.632706667E0,2.748653871E0,-3.002510154E-1,3.521543642E-2,2.765228545E0
7.642733667E0,2.402640792E0,-4.188033128E-1,-4.868841988E-1,2.486993207E0
7.652761667E0,2.216588237E0,-5.923182678E-1,-8.808444464E-1,2.457639372E0
7.662788667E0,1.980559530E0,-8.268892640E-1,-1.224115766E0,2.470793661E0
7.672815667E0,1.662431238E0,-1.084231657E0,-1.557895301E0,2.523147573E0
7.682842667E0,1.377167221E0,-1.311643322E0,-1.781833135E0,2.606132591E0
7.692869667E0,1.335518673E0,-1.600969400E0,-2.076895332E0,2.942823026E0
7.702897667E0,1.494533703E0,-1.869834316E0,-2.169283678E0,3.230433877E0
7.712924667E0,1.634569840E0,-2.050798624E0,-2.057298973E0,3.333177556E0
7.722951667E0,1.759071094E0,-2.350411123E0,-1.879271137E0,3.485745769E0
7.732978667E0,1.873690554E0,-2.761779116E0,-1.603745073E0,3.702720411E0
7.743005667E0,1.877487152E0,-3.183903063E0,-1.270839112E0,3.908609570E0
7.753033667E0,1.813764195E0,-3.472763410E0,-9.573961937E-1,4.033166712E0
7.763060667E0,1.595651942E0,-3.534646247E0,-6.003733921E-1,3.924318721E0
7.773087667E0,1.170296239E0,-3.473293168E0,-2.224514723E-1,3.671899151E0
7.783114667E0,5.647708654E-1,-3.110957001E0,1.366956228E-1,3.164759910E0
7.793141667E0,1.230219090E-1,-2.623686886E0,3.192819482E-1,2.645904048E0
7.803169667E0,-3.321902615E-1,-2.278748817E0,5.034341580E-1,2.357221350E0
7.813196667E0,-9.332360834E-1,-1.833004751E0,7.354370570E-1,2.184422960E0
7.823223667E0,-1.554417962E0,-1.530601668E0,8.918974382E-1,2.356785460E0
7.833250667E0,-2.223158754E0,-1.145824765E0,8.874132085E-1,2.653837116E0
7.843277667E0,-2.591778338E0,-1.034889050E0,8.189329576E-1,2.908429385E0
7.853305667E0,-3.030625321E0,-9.284045291E-1,7.231006014E-1,3.251076635E0
7.863332667E0,-3.425958495E0,-8.085819241E-1,6.095324707E-1,3.572467798E0
7.873359667E0,-3.740298961E0,-7.782562172E-1,4.830589138E-1,3.850826531E0
7.883386667E0,-4.087942829E0,-8.985673571E-1,2.450965691E-1,4.192704640E0
7.893413667E0,-4.361761506E0,-1.043660751E0,-4.443357646E-2,4.485104853E0
7.903441667E0,-4.465004624E0,-1.196759568E0,-3.468480982E-1,4.635601725E0
7.913468667E0,-4.489800326E0,-1.336340792E0,-6.364805335E-1,4.727496288E0
7.923495667E0,-4.540179936E0,-1.518958984E0,-8.694797981E-1,4.865846830E0
7.933522667E0,-4.564725378E0,-1.660360739E0,-1.100541222E0,4.980432365E0
7.943549667E0,-4.414825573E0,-1.856984767E0,-1.321098270E0,4.968337539E0
7.953577667E0,-4.215252501E0,-2.048717015E0,-1.528006673E0,4.929543534E0
7.963604667E0,-3.892771541E0,-2.205069222E0,-1.663871992E0,4.773308135E0
7.973631667E0,-3.563156394E0,-2.248512865E0,-1.740846493E0,4.558776163E0
7.983658667E0,-3.243201431E0,-2.177887856E0,-1.765052796E0,4.286835944E0
7.993685667E0,-2.861579978E0,-2.077977359E0,-1.809321481E0,3.972439313E0
8.003713667E0,-2.494100600E0,-1.963465488E0,-1.684382270E0,3.593449340E0
8.013740667E0,-2.076807039E0,-1.887072200E0,-1.482289633E0,3.173539274E0
8.023767667E0,-1.692082468E0,-1.952397878E0,-1.166801943E0,2.834859314E0
8.033794667E0,-1.451874171E0,-2.056464283E0,-7.959218252E-1,2.640165811E0
8.043821667E0,-1.342903706E0,-2.196006623E0,-5.031500564E-1,2.622783909E0
8.053849667E0,-1.171554560E0,-2.379222986E0,-2.562425315E-1,2.664376538E0
8.063876667E0,-1.024939136E0,-2.523978995E0,-5.182204507E-2,2.724638641E0
8.073903667E0,-7.231321764E-1,-2.659703688E0,8.404144585E-2,2.757536367E0
8.083930667E0,-3.907501262E-1,-2.689852809E0,2.137315196E-1,2.726476656E0
8.093957667E0,-3.109104896E-1,-2.630939772E0,3.245531035E-1,2.669053041E0
8.103985667E0,-1.964915890E-1,-2.690272054E0,3.076511785E-1,2.714925767E0
8.114012667E0,5.006561458E-2,-2.650470350E0,2.390353453E-1,2.661698243E0
8.124039667E0,2.644338959E-1,-2.285569595E0,1.097247193E-1,2.303430739E0
8.134066667E0,4.805604351E-1,-1.616923528E0,-1.733418044E-1,1.695708527E0
8.144093667E0,9.141104257E-1,-8.911761841E-1,-5.909266305E-1,1.406764779E0
8.154121667E0,1.742605335E0,-3.153061339E-1,-1.227325303E0,2.154627279E0
8.164148667E0,2.511901279E0,-5.298746824E-2,-2.011211804E0,3.218295920E0
8.174175667E0,3.190031530E0,-2.393241978E-1,-2.778233766E0,4.236998949E0
8.184202667E0,3.656893693E0,-5.066857946E-1,-3.252945231E0,4.920493334E0
8.194229667E0,3.880247975E0,4.409268379E-2,-3.579521581E0,5.279322235E0
8.204257667E0,4.421509525E0,5.882831043E-1,-3.499205981E0,5.669238572E0
8.214284417E0,4.327704983E0,3.984862849E-1,-2.768902779E0,5.153119865E0
8.224311417E0,3.381885107E0,4.017700812E-1,-1.587855849E0,3.757639189E0
8.234338417E0,2.762153338E0,9.498269731E-1,-4.212345850E-1,2.951118588E0
8.244365417E0,2.665331048E0,1.205360237E0,7.311416924E-1,3.015203322E0
8.254393417E0,2.654384476E0,8.425212103E-1,1.622573107E0,3.223095162E0
8.264420417E0,2.429404668E0,3.860641676E-1,2.410376658E0,3.443975641E0
8.274447417E0,1.979355004E0,-3.965815544E-2,2.972599307E0,3.571521474E0
8.284474417E0,1.483871890E0,-3.734359360E-1,3.144790453E0,3.497289976E0
8.294501417E0,9.840659291E-1,-4.895984763E-1,3.084968759E0,3.274923612E0
8.304528417E0,5.385917115E-1,-2.051203251E-1,2.802115549E0,2.860770338E0
8.314556417E0,1.676501977E-1,3.244415313E-1,2.385769236E0,2.413558316E0
8.324583417E0,-5.013519645E-2,9.656887150E-1,2.052208972E0,2.268618500E0
8.334610417E0,-1.109170032E-1,1.629847628E0,1.786297485E0,2.420653750E0
8.344637417E0,-1.654785419E-1,2.277284090E0,1.780376594E0,2.895366435E0
8.354664417E0,-1.778600210E-1,2.858742324E0,1.885755115E0,3.429302293E0
8.364692417E0,-1.348332846E-1,3.303224269E0,1.998158480E0,3.862914431E0
8.374719417E0,-1.501296008E-1,3.638320597E0,2.031104032E0,4.169568233E0
8.384746417E0,-2.676808548E-1,3.814155727E0,2.052751594E0,4.339726495E0
8.394773417E0,-5.626676220E-1,3.843686505E0,1.845567201E0,4.300771919E0
8.404800417E0,-8.856274688E-1,3.600137109E0,1.634513122E0,4.051784343E0
8.414828417E0,-1.346979216E0,3.184722843E0,1.738770146E0,3.870417834E0
8.424855417E0,-1.683429759E0,2.709036646E0,1.710429862E0,3.619169189E0
8.434882417E0,-1.869457755E0,2.162896764E0,1.661072491E0,3.306381184E0
8.444909417E0,-2.047209018E0,1.670568223E0,1.728595991E0,3.157515962E0
8.454936417E0,-2.080086742E0,1.154652014E0,1.813883479E0,2.991681033E0
8.464964417E0,-2.005945802E0,6.762503707E-1,1.909279633E0,2.850698483E0
8.474991417E0,-1.900047464E0,4.045051163E-1,2.021825670E0,2.803851600E0
8.485018417E0,-1.761453835E0,1.965149778E-1,2.160383631E0,2.794386369E0
8.495045417E0,-1.601605577E0,3.367645383E-2,2.277668252E0,2.784608984E0
8.505072417E0,-1.357556244E0,-6.687402070E-2,2.416737260E0,2.772733322E0
8.515100417E0,-1.124181004E0,-9.828000069E-2,2.563297720E0,2.800702963E0
8.525127417E0,-8.206438529E-1,-1.582578152E-1,2.589190360E0,2.720736774E0
8.535154417E0,-5.910716414E-1,-1.987550461E-1,2.527830849E0,2.603612501E0
8.545181417E0,-4.221216077E-1,-2.356579936E-1,2.449791570E0,2.497038261E0
8.555208417E0,-2.489335120E-1,-2.318035090E-1,2.308142771E0,2.333071754E0
8.565236417E0,-3.171588242E-2,-1.250082082E-1,2.123272523E0,2.127185736E0
8.575263417E0,2.735081899E-1,1.258110309E-1,1.893355472E0,1.917141124E0
8.585290417E0,6.058574957E-1,5.828346688E-1,1.645779537E0,1.848066514E0
8.595317417E0,9.458298165E-1,1.041370981E0,1.331878781E0,1.937252862E0
8.605344417E0,1.445587830E0,1.422740420E0,8.767957612E-1,2.209679905E0
8.615371417E0,1.920218604E0,1.714665000E0,3.323533988E-1,2.595722314E0
8.625399417E0,2.286693429E0,1.779742756E0,-1.940200074E-1,2.904151318E0
8.635426417E0,2.643067775E0,1.500946344E0,-6.796581280E-1,3.114575792E0
8.645453417E0,2.844102650E0,1.028845076E0,-1.215150815E0,3.259452957E0
8.655480417E0,2.904346513E0,6.920536405E-1,-1.705272617E0,3.438331224E0
8.665507417E0,2.902951952E0,5.560667002E-1,-2.191497250E0,3.679538070E0
8.675535417E0,2.781953180E0,6.888072664E-1,-2.606356031E0,3.873862505E0
8.685562417E0,2.625861173E0,1.192819714E0,-2.544065643E0,3.845807557E0
8.695589417E0,2.993667410E0,1.425469900E0,-1.887081263E0,3.815112671E0
8.705616417E0,3.686338516E0,1.138324834E0,-1.121591856E0,4.017815747E0
8.715643417E0,4.165534796E0,7.796127713E-1,-5.273288047E-1,4.270544682E0
8.725671417E0,4.233645503E0,4.883559430E-1,-4.455174869E-1,4.284942427E0
8.735698417E0,3.763675545E0,3.857343847E-1,-5.418789796E-1,3.821999143E0
8.745725417E0,3.212920455E0,3.555627519E-1,-5.558427519E-1,3.279976202E0
